Channel_1,Channel_2,Channel_3,Channel_4,Channel_5,Channel_6,Channel_7,Channel_8
436,227,210,65,69,157,226,246
442,239,222,73,74,174,235,251
467,268,220,75,77,176,241,255
484,280,177,72,71,151,227,266
461,260,145,67,67,151,218,288
463,261,147,70,67,143,208,289
434,293,145,71,69,148,199,292
445,293,161,71,71,172,206,311
444,277,202,78,72,168,171,285
416,283,232,82,74,177,182,259
416,304,231,82,75,189,196,278
478,336,232,75,69,175,233,308
466,328,231,76,64,155,227,295
451,318,205,69,61,152,252,298
438,334,193,73,59,137,245,292
428,330,194,78,63,128,267,310
421,258,180,76,63,144,267,331
404,250,180,83,67,161,297,317
427,261,193,88,71,160,283,329
426,283,187,84,73,160,275,325
436,260,197,78,71,166,245,295
475,284,202,82,74,157,254,289
482,287,192,76,71,133,227,290
438,288,189,80,73,129,216,280
464,242,217,93,77,126,228,289
475,287,205,92,73,107,260,297
428,303,234,101,77,103,229,282
462,336,251,103,78,104,205,309
472,334,251,102,80,102,209,320
456,369,240,92,78,144,238,338
439,337,252,95,86,168,239,331
413,316,230,91,86,188,258,321
373,307,215,92,84,191,267,309
363,337,228,91,81,190,277,319
345,295,224,89,78,166,242,342
337,291,217,94,78,144,214,323
290,323,202,86,77,126,180,318
327,296,200,84,79,129,178,323
350,256,165,74,78,135,166,295
372,286,185,74,80,151,180,247
386,354,215,77,78,151,180,264
462,318,239,83,73,140,173,272
427,318,236,83,72,146,196,273
444,350,256,92,74,145,214,317
468,341,235,96,74,127,221,312
452,288,212,86,67,124,209,320
399,305,221,92,71,124,222,354
459,339,220,92,72,113,212,362
444,311,201,86,68,113,204,332
446,308,194,86,67,101,211,335
463,299,212,97,73,104,219,320
489,286,185,92,75,112,216,300
460,240,191,87,72,118,199,279
451,229,194,85,72,119,187,280
417,250,209,83,69,121,182,286
414,256,182,67,61,118,195,291
428,255,169,56,48,115,193,256
425,288,179,63,54,124,195,249
441,360,190,93,76,146,212,256
439,334,181,95,76,151,208,272
418,332,176,102,82,159,193,281
360,337,178,107,84,155,211,283
372,331,177,105,82,150,210,326
357,263,167,86,67,122,206,341
355,316,166,85,69,114,204,324
359,311,161,76,61,109,209,324
359,295,160,70,59,110,179,325
334,319,160,74,61,117,186,284
382,310,159,66,56,111,173,277
386,279,145,61,53,114,162,280
434,289,190,62,56,112,162,297
470,292,213,68,67,149,212,288
500,246,208,67,61,139,214,282
479,332,223,73,66,146,227,264
480,324,222,71,64,145,224,246
477,319,194,76,65,144,217,200
426,322,178,80,67,124,207,224
406,357,182,81,74,151,228,228
443,298,168,77,70,153,216,218
435,305,192,85,76,161,223,241
414,321,198,84,79,178,252,276
430,332,193,76,67,171,233,275
401,349,202,85,70,146,225,272
324,358,199,89,74,137,223,286
366,355,180,87,70,127,214,272
397,382,171,86,67,103,204,260
424,381,177,94,74,106,234,261
415,332,172,84,73,124,221,263
457,364,205,84,68,120,216,269
478,369,205,80,73,136,231,369
450,340,202,76,72,152,226,384
447,340,199,71,64,138,181,374
472,382,193,71,56,117,172,376
452,343,150,65,58,127,181,372
491,344,158,65,55,147,183,312
508,374,178,76,57,136,178,298
473,366,177,75,63,143,183,284
451,319,193,81,62,143,186,290
474,316,189,83,64,164,227,283
426,332,183,81,61,143,239,302
395,305,193,85,62,137,227,276
412,348,193,84,58,133,232,301
442,366,170,77,57,148,239,311
396,362,183,82,57,121,203,308
400,362,184,86,66,134,216,310
435,353,168,77,66,145,237,327
438,310,167,79,65,143,228,311
418,293,169,80,68,140,220,326
466,304,157,75,63,160,235,379
433,343,175,84,68,149,220,338
386,331,185,81,67,139,193,334
394,337,202,77,69,144,203,367
425,341,201,83,71,137,222,365
364,331,196,79,71,123,221,342
370,259,184,77,63,110,188,333
426,255,173,84,60,107,196,332
422,256,153,83,59,101,193,291
403,246,153,75,53,109,188,302
406,268,174,90,66,116,182,257
378,281,165,78,67,126,200,284
326,344,168,77,72,131,203,280
371,338,169,81,74,133,195,278
356,346,172,84,74,144,227,269
385,348,172,78,68,128,220,279
396,354,170,77,63,119,203,251
398,287,158,74,58,118,202,254
363,300,158,71,59,130,216,260
367,305,174,81,65,111,175,261
349,307,167,77,61,111,166,282
376,294,163,79,63,114,164,283
374,306,154,73,60,117,162,278
371,292,154,76,59,150,235,329
361,270,142,67,56,171,254,292
355,245,137,63,59,169,256,286
312,260,139,62,56,169,262,286
316,282,178,64,60,168,279,297
303,289,187,61,57,136,221,270
290,316,180,69,71,151,205,298
289,303,181,72,70,156,198,277
322,268,196,77,69,156,190,278
415,276,184,81,73,157,197,315
437,304,163,81,77,166,201,330
477,323,168,79,68,128,204,312
483,367,173,83,74,125,210,313
465,397,167,79,74,141,218,319
445,381,157,79,71,142,194,293
487,367,166,80,69,125,188,272
515,384,182,79,69,131,168,294
549,364,186,70,60,124,161,302
561,344,190,80,68,116,161,301
557,351,178,80,74,124,167,295
511,351,176,83,72,125,157,290
458,310,167,76,69,122,165,271
449,311,163,78,71,127,167,260
454,336,162,71,68,126,186,258
425,332,163,66,61,113,207,250
417,335,192,69,63,108,204,233
447,334,193,77,63,114,212,252
439,324,188,75,66,154,243,299
420,318,182,76,68,162,232,304
398,333,189,77,67,180,239,322
417,311,160,68,65,184,238,325
418,309,154,62,66,190,228,315
416,310,148,63,68,177,221,290
474,301,163,66,66,169,224,297
459,276,156,64,64,144,194,264
430,288,156,63,64,147,203,264
456,284,156,69,65,133,212,267
432,270,159,75,65,114,201,251
405,255,134,69,62,123,199,252
428,265,143,70,66,131,191,266
499,256,138,74,70,132,199,269
474,266,152,77,69,131,199,250
484,264,167,78,66,127,185,235
463,283,183,79,68,120,199,247
464,269,177,79,68,121,221,279
465,280,196,77,65,136,232,324
435,273,194,79,64,133,219,323
441,306,188,76,66,136,233,337
444,284,176,73,64,125,217,314
492,313,174,72,59,131,194,287
451,299,184,80,63,111,182,243
465,312,184,79,58,117,179,236
453,300,174,77,55,127,205,223
490,297,170,77,54,131,199,246
431,264,171,76,56,154,223,256
420,262,150,69,53,152,207,240
418,274,145,65,57,157,217,250
417,291,153,66,55,149,181,253
360,330,167,66,62,160,200,242
356,324,171,69,62,125,200,229
380,335,167,69,62,130,206,221
388,301,150,68,63,122,200,253
390,323,189,70,61,122,199,253
422,280,188,74,65,120,190,241
415,288,191,76,68,126,161,243
394,284,197,78,68,125,162,251
362,318,207,79,68,120,167,213
350,262,160,79,71,119,184,231
325,278,152,73,60,106,194,263
346,285,139,70,58,102,193,250
348,302,155,78,61,94,196,242
376,290,174,72,55,107,195,285
397,318,175,71,56,110,175,267
373,340,183,73,57,110,156,236
392,331,192,75,59,107,156,237
394,316,168,59,53,121,167,262
494,321,143,63,60,143,178,290
494,290,143,57,60,157,193,327
507,274,130,56,62,161,203,330
494,315,125,57,60,160,201,336
545,324,125,60,61,148,198,325
457,300,133,54,56,118,181,288
443,307,135,67,66,140,227,327
484,331,149,72,65,140,226,328
465,293,153,70,67,143,232,321
464,308,193,69,67,143,233,320
477,326,178,66,65,145,231,300
498,370,194,71,60,118,205,303
515,326,193,74,63,115,215,301
519,334,207,80,65,120,229,316
492,303,175,84,70,142,224,325
501,323,193,88,71,141,232,326
482,316,185,92,73,132,215,265
436,331,177,87,70,129,195,379
463,325,155,84,69,127,207,395
423,368,159,85,71,108,194,373
376,331,138,86,77,134,238,421
390,286,145,83,78,135,228,417
401,290,157,88,82,150,260,373
396,287,152,87,79,149,242,359
435,241,145,82,72,150,261,392
465,254,155,80,66,143,245,347
450,249,142,67,52,144,255,337
439,256,133,63,52,129,221,266
440,259,135,59,51,138,238,255
400,240,149,66,61,147,221,249
392,267,173,75,65,136,198,243
383,257,174,80,69,132,183,248
415,246,193,80,64,132,183,272
413,233,194,80,63,133,162,268
411,226,186,76,59,163,202,302
379,235,174,67,53,160,201,309
384,241,170,60,49,156,203,305
314,226,153,59,51,158,210,293
338,243,152,63,61,176,231,354
327,285,171,72,66,132,198,334
344,256,148,73,67,129,194,322
378,260,167,82,76,131,197,341
446,281,164,80,75,139,217,350
403,267,160,83,77,126,206,293
455,243,135,76,73,134,217,278
435,281,139,72,71,134,213,279
460,288,126,68,63,131,209,256
451,269,118,74,68,132,203,244
461,275,122,67,56,127,238,250
437,291,124,66,53,124,233,232
446,245,146,76,56,124,227,229
415,230,140,70,56,124,233,317
428,286,137,68,55,118,221,347
497,306,137,70,54,94,158,334
472,293,153,71,53,102,198,358
500,304,149,74,61,105,205,365
510,339,152,74,61,108,221,311
478,290,156,72,58,98,228,308
406,266,157,74,65,134,233,321
432,288,157,74,67,135,205,300
432,274,139,64,63,134,199,294
412,234,153,74,65,136,209,270
393,255,154,76,73,148,211,273
407,291,157,72,73,132,234,271
394,278,145,72,74,134,241,287
399,283,153,72,73,147,258,293
431,301,143,64,73,149,230,308
449,308,144,61,67,141,230,272
440,273,145,62,68,144,210,263
465,268,145,70,65,134,192,237
419,262,134,70,64,121,178,219
398,270,122,71,61,113,189,246
392,242,114,76,61,119,181,255
364,252,115,82,61,115,186,242
338,278,120,81,62,116,194,234
333,273,125,82,64,114,208,242
319,253,131,81,67,128,218,229
309,307,165,84,66,133,234,281
318,309,158,78,60,128,229,325
324,277,190,71,57,126,225,322
342,274,199,68,57,128,203,320
367,317,193,68,59,139,236,331
404,287,182,70,60,129,212,283
406,285,203,80,66,127,207,239
374,276,179,79,69,128,201,241
365,270,163,78,68,129,205,264
346,221,163,83,65,101,149,264
361,217,149,74,68,98,141,262
364,192,120,60,61,92,134,267
382,213,110,60,56,95,157,291
442,319,143,70,59,98,181,309
487,326,142,64,58,96,172,318
431,343,149,71,59,101,182,328
455,367,160,73,59,99,195,327
456,357,163,78,65,109,178,303
415,276,144,74,60,107,167,297
374,291,147,73,58,107,168,239
386,274,158,87,63,101,180,230
366,261,157,90,69,110,186,258
349,273,160,86,68,93,184,267
394,289,155,84,70,97,181,240
428,257,158,88,73,96,189,251
482,242,155,76,65,102,175,245
474,237,154,78,69,122,199,242
490,226,141,76,68,134,210,246
452,247,150,77,69,141,215,244
389,276,160,89,74,174,220,255
333,295,160,90,78,172,212,268
331,298,151,88,74,160,183,244
319,309,152,90,75,158,190,244
340,289,148,91,77,181,212,297
327,281,156,91,78,159,211,290
306,278,160,98,80,174,228,282
291,297,169,98,83,173,218,270
384,289,165,96,81,167,212,285
419,277,167,95,79,165,209,263
457,279,153,85,74,160,197,309
440,304,141,69,64,146,180,302
465,279,125,65,55,140,177,301
396,277,141,65,57,150,163,282
393,325,186,92,69,135,156,274
352,322,190,95,71,134,158,203
384,294,190,104,81,131,156,203
357,291,191,106,83,134,160,210
359,290,183,109,85,129,166,227
380,304,132,95,90,150,145,197
415,283,112,91,90,152,145,212
406,267,92,76,84,152,151,217
416,260,90,74,81,152,157,230
426,311,123,81,85,163,187,217
369,256,120,71,67,122,184,241
322,280,131,69,62,115,182,223
319,279,133,68,57,112,181,226
318,305,141,76,65,117,206,228
334,248,112,66,58,94,204,252
303,243,118,71,62,95,200,229
300,228,110,71,62,102,202,255
277,280,122,73,64,103,205,259
307,260,113,68,60,121,204,295
271,255,110,66,58,131,181,267
267,260,128,64,55,127,169,264
308,302,129,65,57,122,163,248
366,251,123,67,66,141,168,239
360,240,125,64,64,133,167,170
381,272,129,67,72,128,173,265
383,254,122,64,70,131,176,268
411,189,119,63,68,131,182,265
375,197,114,66,66,129,197,284
362,283,122,63,62,122,187,305
357,262,121,59,53,125,186,240
403,257,127,58,51,119,186,233
349,255,151,58,52,124,205,240
348,258,156,49,42,112,191,218
346,227,156,57,52,114,181,199
336,241,159,57,49,102,173,198
266,254,155,63,59,130,199,209
371,261,132,65,63,124,177,223
361,295,138,73,67,131,184,216
366,269,138,71,62,122,193,270
388,255,140,72,61,122,192,274
443,263,133,72,59,97,163,271
372,300,146,75,64,120,178,266
378,258,147,67,58,107,159,270
380,249,149,67,61,119,147,220
371,246,155,71,65,132,166,239
361,278,160,65,59,135,195,237
368,238,148,59,53,122,193,227
377,254,141,60,54,119,194,226
359,261,131,57,51,109,193,206
361,276,128,63,61,121,198,182
316,228,116,66,69,145,202,228
287,217,124,64,68,144,190,222
275,203,134,66,69,147,186,219
285,198,138,67,70,155,199,247
260,175,125,59,62,151,194,250
269,172,128,59,58,130,170,208
295,176,127,63,60,127,171,215
307,210,118,65,63,135,178,256
317,214,133,67,61,136,159,237
309,232,131,71,64,149,142,216
339,239,132,69,72,200,157,226
335,285,151,69,74,210,158,226
310,269,148,69,72,205,149,183
290,259,133,69,80,222,187,177
366,239,135,69,91,262,288,217
371,254,150,84,94,237,289,213
372,212,131,80,90,230,293,208
406,242,126,80,89,230,299,224
428,241,133,82,86,214,280,232
394,257,157,80,69,141,197,225
376,248,150,72,61,131,184,221
416,246,159,76,66,132,174,228
417,233,170,81,71,140,203,222
409,232,166,78,68,136,209,235
372,215,151,77,66,127,191,205
343,198,144,70,59,108,185,203
279,216,128,68,58,117,198,198
352,189,117,64,54,124,217,186
351,183,123,70,61,117,216,195
400,191,120,66,61,118,216,193
441,209,116,64,66,136,263,214
484,212,123,62,64,129,274,211
419,248,134,62,63,113,251,279
406,253,134,58,57,116,258,280
403,282,136,61,60,118,268,309
415,299,136,62,56,110,241,315
401,278,130,58,55,110,218,340
409,245,131,55,50,113,196,296
468,298,134,56,48,115,192,285
426,280,131,55,47,118,180,271
417,262,138,61,46,104,169,295
396,275,153,68,53,102,177,282
394,298,144,67,58,101,191,292
320,239,137,61,57,97,178,286
356,246,134,62,56,100,185,279
329,248,136,62,65,157,261,279
322,258,119,57,60,156,255,277
290,237,115,60,61,158,254,262
295,250,113,61,64,158,255,261
303,253,124,72,73,173,271,281
371,250,114,67,66,135,199,283
363,259,119,67,67,131,203,275
377,257,126,66,62,123,188,269
371,248,136,67,60,120,181,267
349,251,135,64,49,94,147,236
269,281,136,63,48,94,166,217
273,285,130,60,46,96,157,209
264,283,136,58,47,96,155,204
315,295,143,68,51,97,163,239
298,286,141,63,54,106,176,256
287,241,140,63,53,94,145,230
336,195,141,66,55,94,157,275
358,214,133,72,67,105,178,290
339,273,136,73,74,123,198,270
350,271,138,75,76,116,189,263
364,277,138,77,79,125,215,271
335,308,143,77,78,128,218,233
314,309,141,74,69,122,204,215
300,296,131,76,70,111,187,208
285,290,139,76,68,116,179,203
255,298,136,75,66,127,179,212
249,273,158,77,64,129,174,250
317,323,162,80,69,134,174,266
355,281,159,77,65,132,175,261
358,275,154,74,61,130,181,255
377,288,157,75,59,119,177,247
382,313,134,78,69,129,176,219
326,262,130,72,65,121,178,215
281,255,128,62,57,116,172,219
292,300,116,60,60,117,170,230
275,298,116,65,67,121,153,213
248,270,134,62,60,102,153,202
240,259,129,65,59,101,145,181
350,272,131,68,61,101,160,205
389,299,140,69,61,94,183,317
384,292,144,65,54,72,168,318
385,303,128,63,53,68,168,328
411,290,135,61,57,93,187,335
338,302,151,68,67,147,223,343
324,311,141,67,68,153,204,264
346,304,138,72,70,155,211,253
343,301,147,71,70,163,213,223
327,361,150,76,73,155,214,237
334,360,137,75,69,118,172,262
302,297,142,74,63,111,166,233
305,328,143,71,63,110,159,241
323,312,152,69,61,107,154,245
338,262,166,76,67,117,203,239
322,257,160,76,64,101,217,187
326,288,171,72,64,100,216,194
352,244,176,70,65,111,215,196
363,248,167,73,67,144,237,248
360,237,147,67,59,146,206,264
363,248,145,63,63,155,190,258
350,215,135,65,64,155,184,249
318,236,136,69,61,158,205,286
305,287,130,75,68,138,187,300
350,308,137,71,64,124,203,313
342,297,162,71,57,119,202,311
352,289,161,72,57,119,203,315
406,309,154,70,60,127,210,308
384,263,166,69,53,120,225,286
327,242,161,70,57,117,195,249
383,236,134,65,54,116,190,264
393,235,139,70,57,115,188,261
334,238,140,68,54,98,176,238
346,255,134,63,55,102,169,246
345,254,133,61,50,112,171,269
281,294,149,75,59,111,187,257
271,313,138,71,58,116,195,265
