Channel_1,Channel_2,Channel_3,Channel_4,Channel_5,Channel_6,Channel_7,Channel_8
109,387,716,412,124,89,98,60
115,398,745,443,128,92,96,61
112,434,755,438,124,90,96,63
114,447,769,438,136,106,110,72
116,432,768,471,140,104,106,71
97,418,741,476,133,102,106,66
91,422,667,423,122,93,105,67
93,429,659,425,122,99,114,70
88,408,755,453,115,97,101,63
101,441,747,453,129,115,116,65
109,498,769,472,139,123,112,68
110,511,767,491,147,125,111,67
122,478,729,450,145,143,141,77
134,480,718,470,165,149,147,82
122,460,722,453,149,137,139,80
124,409,682,428,144,131,140,79
124,385,693,438,147,134,145,79
122,392,707,456,153,116,112,67
108,384,633,430,126,100,104,58
108,383,609,410,123,96,101,59
96,340,611,408,118,91,105,56
88,340,646,381,107,92,111,56
82,318,619,361,99,85,107,53
86,298,578,345,106,88,107,55
78,297,548,351,105,91,104,50
97,349,547,334,111,98,107,63
101,384,539,339,122,108,117,67
98,415,523,336,118,107,118,68
117,472,572,347,115,101,115,73
125,499,644,352,120,100,125,78
111,465,653,318,108,99,125,66
111,446,610,331,96,77,100,61
112,475,661,382,109,94,102,62
90,462,676,379,109,104,111,59
93,470,619,364,106,104,101,55
100,487,593,379,104,105,102,58
100,466,673,365,105,109,113,58
101,412,673,351,92,96,108,57
102,379,700,362,87,83,98,50
95,371,773,438,109,95,104,54
94,346,838,458,116,93,97,50
102,360,794,465,115,92,93,57
101,418,806,486,128,102,96,61
96,435,757,471,129,104,99,62
91,399,709,433,121,106,103,59
84,440,656,422,120,104,104,58
74,446,721,507,129,110,103,54
73,386,674,467,127,107,108,49
85,362,721,532,147,116,105,51
88,401,763,528,151,109,115,57
89,336,764,532,156,112,114,57
93,312,757,467,155,110,115,58
95,318,778,523,146,101,106,61
93,362,766,477,138,101,122,63
95,411,748,490,136,111,115,58
99,427,762,571,159,118,116,60
114,442,814,626,172,121,119,70
106,453,831,586,176,126,124,66
105,427,818,592,178,125,121,68
110,337,794,574,173,112,114,68
108,331,795,498,146,100,114,67
89,310,686,413,132,108,115,56
91,294,665,404,132,112,115,57
93,286,715,420,122,104,116,56
87,330,721,448,123,111,122,61
89,341,677,413,126,119,129,63
83,365,674,398,119,106,124,61
84,371,645,416,122,108,123,60
77,374,612,382,132,113,115,59
78,352,573,353,135,113,115,55
69,339,586,355,128,104,102,50
79,344,633,354,135,117,106,52
77,343,652,329,128,122,111,56
81,343,600,329,125,118,107,53
92,312,635,337,123,114,91,52
97,324,635,361,133,127,93,52
93,336,636,349,125,116,94,50
91,316,642,352,118,101,86,47
98,297,675,353,103,99,89,47
85,355,656,354,98,98,89,45
94,391,746,421,103,88,97,51
106,351,757,457,109,90,102,53
106,355,723,449,122,95,105,53
97,364,662,419,125,100,110,54
108,351,664,446,132,107,119,61
97,285,564,375,121,103,117,60
82,279,459,363,123,100,113,59
94,294,435,355,117,111,114,60
94,301,497,384,117,111,114,60
90,267,576,358,109,104,107,50
90,269,593,351,111,113,110,52
95,275,591,394,131,123,115,51
93,269,634,410,133,118,114,53
97,320,676,410,138,116,110,55
100,335,629,405,140,117,117,61
108,351,638,461,142,108,108,60
106,390,690,424,121,96,107,60
98,385,677,412,117,93,108,58
93,347,653,390,104,91,109,55
86,358,714,391,107,94,115,55
78,347,750,393,122,107,132,55
71,339,750,363,117,103,122,50
81,348,764,369,120,100,122,52
89,333,738,393,136,108,137,61
93,323,745,493,141,102,131,59
95,342,671,440,125,95,121,58
100,363,648,466,123,93,118,60
100,395,716,512,124,91,117,60
103,412,793,539,122,93,98,58
97,384,737,447,111,99,110,60
97,368,764,457,104,91,107,60
91,323,766,477,112,94,110,60
92,305,731,465,120,93,110,60
80,292,667,422,110,80,123,56
81,322,711,471,113,76,110,53
83,348,766,479,129,86,109,56
96,386,822,534,145,96,119,60
89,359,810,540,134,97,123,61
95,363,812,577,149,101,111,60
104,375,773,598,162,99,104,61
102,347,740,605,151,91,100,57
96,296,714,548,145,89,94,54
94,289,671,522,145,85,82,50
91,357,682,484,135,86,89,54
83,355,708,413,119,96,103,53
80,363,675,386,121,97,106,55
76,367,629,363,108,92,102,55
80,400,715,367,116,93,103,54
77,326,689,392,112,89,104,47
81,335,669,389,106,78,107,51
85,335,671,383,105,87,111,50
79,326,654,367,100,89,118,48
73,296,586,370,99,99,123,49
81,310,605,325,99,94,114,52
68,246,568,283,101,105,115,46
63,230,554,287,97,100,110,48
72,251,639,331,106,99,101,51
77,246,665,359,109,95,98,56
72,248,668,382,108,95,93,51
75,252,634,385,118,96,84,57
78,264,675,423,147,118,93,61
77,237,635,424,151,125,99,59
80,240,619,388,143,126,104,56
77,194,608,361,143,128,109,57
77,197,654,361,131,121,103,52
70,197,569,292,97,95,90,46
62,189,514,231,77,80,87,46
68,209,480,310,92,80,87,52
72,254,432,310,89,87,104,55
72,269,402,320,93,85,99,54
79,265,498,338,97,91,107,57
91,302,565,370,112,104,115,60
84,293,548,283,106,104,120,56
87,302,536,293,107,98,109,53
84,311,512,283,112,103,109,50
79,308,472,277,112,101,104,48
67,271,392,229,104,106,109,43
62,260,384,216,100,114,121,48
58,213,431,209,98,114,121,48
60,172,457,237,92,114,126,52
60,171,462,270,87,114,128,53
59,179,490,270,91,110,121,54
59,196,510,310,102,105,104,48
59,215,527,308,104,111,104,51
59,243,558,362,105,105,104,51
59,239,554,355,114,110,111,53
63,235,627,415,107,103,126,54
61,218,642,393,89,93,125,53
62,202,606,393,88,88,120,51
65,153,547,322,81,85,112,50
62,135,517,338,79,76,103,44
59,135,452,268,78,83,97,44
68,159,461,327,100,89,99,47
63,152,451,339,101,88,112,47
61,156,492,345,103,90,119,49
61,156,478,303,102,95,121,51
68,177,481,304,103,88,107,52
66,153,460,260,96,87,101,49
66,169,507,237,96,86,87,47
64,271,516,250,99,86,78,43
62,277,519,262,93,87,78,40
60,277,494,295,100,90,76,36
61,280,488,320,101,98,95,45
62,273,483,343,103,95,97,45
72,187,492,369,117,105,103,53
77,215,496,395,126,100,104,54
76,198,515,435,129,101,105,55
70,198,562,421,121,90,81,49
84,196,619,481,128,97,85,51
83,185,638,473,121,86,85,49
81,148,676,459,120,88,80,48
84,161,675,455,128,81,74,46
86,159,657,470,128,80,83,45
79,175,630,422,120,74,84,44
70,167,578,406,118,84,103,43
70,159,551,396,109,78,101,44
65,162,509,335,86,80,108,48
72,169,502,278,82,80,116,49
64,154,482,233,85,83,121,48
65,164,563,231,79,75,103,45
66,165,589,214,84,85,110,48
65,160,600,199,85,84,106,43
67,188,622,241,94,86,96,45
78,186,672,259,101,89,87,48
80,184,628,249,99,90,93,49
80,190,610,281,98,91,96,44
81,183,628,287,99,89,94,43
89,158,604,312,105,109,121,51
80,148,496,293,92,110,146,55
79,160,481,292,92,111,148,57
77,165,496,275,87,106,151,61
81,191,541,323,94,111,153,64
62,188,567,288,77,92,135,56
72,206,657,339,87,86,104,52
76,189,699,365,100,90,103,55
77,184,668,362,102,91,88,54
70,162,642,343,101,88,95,52
80,167,625,341,109,86,89,53
70,168,625,383,119,90,96,54
68,220,584,387,119,88,92,53
70,216,602,405,118,81,91,50
72,209,572,386,113,81,87,53
67,196,627,405,120,81,87,52
66,204,613,374,117,84,85,50
74,169,623,360,111,91,91,51
76,202,651,370,120,97,95,52
82,222,757,419,134,102,92,50
77,232,710,407,122,99,91,48
84,227,656,357,109,89,90,51
81,236,648,333,115,90,100,53
81,229,658,301,105,87,101,53
75,221,653,292,90,82,103,53
77,217,660,287,93,89,113,56
68,216,651,300,99,91,110,53
66,193,642,353,87,75,94,44
71,204,633,364,90,74,91,45
75,199,546,326,90,71,88,47
77,197,506,320,93,77,88,45
81,179,560,339,91,80,92,45
80,189,595,359,97,84,92,49
75,192,591,360,96,84,89,49
65,192,570,346,92,85,89,45
66,190,590,362,90,75,80,45
74,233,604,390,102,84,87,54
69,228,589,342,99,89,87,49
72,206,586,373,112,101,97,51
79,221,630,389,117,102,93,54
78,232,647,383,114,100,91,52
67,210,627,339,101,92,95,44
79,219,666,335,116,102,105,53
77,216,678,329,116,97,102,51
74,213,674,344,136,107,111,52
80,207,669,347,133,106,113,58
78,230,712,362,137,107,107,56
71,218,701,379,126,94,100,52
83,233,738,392,122,91,100,60
81,217,705,381,105,90,104,63
83,224,699,363,109,91,100,62
88,193,647,372,117,96,96,64
89,195,611,361,116,97,96,66
87,188,612,342,116,97,91,60
86,202,622,385,113,87,77,53
84,200,676,461,138,111,95,50
82,212,749,470,139,113,96,47
80,222,762,513,150,113,94,45
82,224,748,526,154,120,111,45
87,222,776,497,151,121,124,51
81,214,719,431,128,106,114,49
81,213,655,451,126,97,110,51
83,207,635,406,121,95,109,52
75,194,704,378,118,98,105,50
77,193,717,459,133,104,93,48
77,195,775,488,137,99,93,52
81,186,878,525,145,110,100,53
95,220,1043,647,173,119,113,63
93,224,977,661,170,106,99,62
92,249,1024,714,189,108,100,62
101,284,1055,783,205,115,99,62
99,285,976,757,197,104,96,60
85,278,822,656,168,97,93,52
96,279,809,645,164,99,99,55
99,283,758,551,136,87,91,57
94,255,694,458,121,80,97,56
101,270,744,495,128,83,95,60
104,280,773,498,132,82,93,60
96,279,770,480,134,86,90,58
90,263,808,442,128,88,96,53
86,276,861,412,114,85,90,52
80,272,860,354,110,92,96,50
73,235,795,365,110,91,88,48
79,245,912,397,114,91,95,52
80,300,863,417,123,89,88,51
79,297,829,448,135,93,85,49
73,282,749,400,130,86,78,46
87,320,803,424,132,82,78,49
99,338,725,432,135,81,74,55
97,273,700,419,127,80,74,55
97,257,637,393,113,73,74,56
97,246,654,389,110,77,88,59
87,209,626,367,107,79,86,58
72,183,734,363,104,84,82,49
74,185,708,343,104,89,93,51
71,175,703,313,99,86,94,49
79,218,756,361,104,81,77,48
80,212,799,363,104,79,77,44
70,183,644,315,92,76,84,41
63,181,630,315,90,69,76,41
71,218,674,330,103,81,83,47
63,180,586,285,102,92,94,47
69,209,594,293,103,96,101,53
72,217,567,288,101,91,93,53
73,224,584,301,101,93,89,50
65,191,564,299,94,87,80,47
61,185,607,290,84,73,70,45
48,144,500,233,66,60,60,36
48,133,555,276,80,67,69,40
54,150,578,325,110,75,76,46
58,164,600,335,116,78,78,46
59,165,578,368,128,90,89,47
61,169,599,386,139,101,110,50
57,180,562,382,139,97,104,46
65,177,609,447,139,99,106,48
76,182,598,461,145,102,109,53
77,194,602,458,145,103,109,51
80,203,585,456,137,95,89,51
85,208,636,481,146,105,98,54
74,198,553,380,125,98,103,50
60,184,512,357,118,94,101,42
68,181,508,334,108,89,98,43
63,176,565,327,113,90,97,42
56,161,514,265,94,78,94,37
59,152,525,258,98,79,83,35
71,188,663,351,116,90,94,47
67,190,671,362,117,88,87,46
80,187,658,406,134,98,92,52
82,195,675,438,142,100,90,57
84,198,724,467,146,100,92,57
78,192,619,404,132,95,90,52
80,197,607,406,132,97,94,52
68,229,588,366,113,86,90,45
71,230,570,379,105,82,86,41
71,235,625,377,106,90,97,48
77,222,614,404,117,93,89,46
76,228,606,395,116,90,88,49
77,219,633,384,112,88,89,50
85,237,661,368,120,103,93,54
88,248,576,365,116,97,86,49
83,238,629,314,96,88,88,49
82,221,644,326,97,91,85,44
80,204,658,351,100,99,91,44
77,177,703,383,99,88,90,41
77,229,749,410,113,90,82,42
75,234,747,448,118,91,79,37
76,250,775,500,122,91,80,41
110,255,770,496,133,92,80,55
116,273,818,517,142,101,87,58
114,215,765,497,135,103,97,59
115,227,725,481,135,104,98,61
131,281,761,506,153,117,110,73
113,279,741,498,150,115,107,68
106,284,620,417,137,109,100,66
112,290,672,418,136,103,90,66
117,287,723,455,138,102,93,68
106,278,751,486,126,87,84,61
99,268,723,483,114,79,77,55
92,249,703,491,113,78,80,52
82,242,654,482,112,82,86,52
79,235,670,475,108,81,84,50
70,173,557,337,93,83,88,43
66,177,560,324,92,84,96,45
70,175,563,332,99,84,97,49
80,184,597,315,93,81,97,52
74,220,571,265,92,78,91,51
70,209,536,260,90,78,99,51
68,214,570,263,97,85,98,52
69,233,660,376,116,93,100,50
57,240,742,379,116,105,111,49
51,208,690,380,115,106,114,48
50,225,717,380,112,102,103,45
68,235,716,409,115,100,103,43
72,252,657,341,93,93,101,46
74,240,501,322,88,75,86,42
77,255,497,306,85,73,88,45
80,254,523,384,111,77,83,48
69,238,491,356,118,95,93,54
68,211,489,346,134,117,113,58
66,225,485,347,134,120,113,59
66,200,464,354,136,121,109,57
71,204,459,286,122,119,111,57
76,220,535,303,111,105,103,54
73,200,494,250,81,78,74,44
72,182,541,261,87,77,78,43
71,205,601,261,87,79,77,43
69,187,613,282,86,75,74,43
69,185,635,301,92,75,69,40
66,194,644,317,96,74,72,42
68,189,679,377,95,72,69,45
77,215,707,410,104,80,72,50
71,225,686,383,102,79,76,46
64,220,612,354,94,76,74,45
68,221,643,351,101,88,83,44
74,225,632,320,96,87,86,45
68,178,557,294,83,77,89,43
77,247,544,323,89,86,89,45
86,357,574,312,99,97,88,45
85,365,625,330,105,89,80,49
89,389,628,357,119,97,80,47
109,404,676,392,124,103,81,48
104,376,687,370,120,98,80,49
96,275,666,385,120,96,83,47
101,301,611,401,114,96,84,47
104,300,647,396,112,91,81,46
83,283,582,333,107,87,79,43
91,294,611,371,113,89,79,41
113,377,675,395,110,78,83,50
111,374,669,360,102,74,79,48
109,353,629,326,98,70,84,48
110,369,660,337,97,68,84,50
111,356,721,356,84,63,83,53
96,306,745,355,89,72,80,49
93,281,760,381,90,74,80,50
85,293,713,363,85,80,90,48
90,305,739,412,108,87,95,50
92,332,731,399,121,89,95,51
103,331,742,383,130,97,96,54
109,359,772,413,151,105,99,55
111,352,801,441,155,101,83,57
115,337,789,426,154,100,73,58
122,327,771,523,175,112,81,68
112,342,737,518,164,107,90,68
119,338,748,551,163,115,109,76
120,347,774,548,163,120,111,77
119,407,814,547,153,118,120,80
107,406,819,482,127,111,120,74
119,388,814,557,150,109,112,72
120,386,855,535,149,94,98,70
123,389,829,550,150,86,97,71
122,357,810,565,167,92,90,67
124,348,853,611,174,81,80,62
124,357,825,582,161,76,80,63
120,373,805,657,166,80,71,58
124,405,855,747,217,140,125,67
120,383,801,739,212,141,128,68
123,393,707,685,210,146,130,72
109,420,782,720,216,147,136,74
122,405,729,647,209,161,153,83
120,374,729,552,163,124,135,82
119,362,746,534,155,116,132,80
113,385,840,565,152,112,129,77
123,327,824,623,206,133,132,80
103,307,806,590,202,120,117,68
99,317,780,591,201,120,96,63
101,340,782,615,216,139,108,68
101,323,646,596,214,142,110,66
96,332,633,472,147,127,102,62
93,348,615,469,135,117,95,63
96,352,608,420,120,106,87,57
97,344,672,417,101,101,84,58
106,322,770,464,124,109,88,59
98,318,739,470,136,106,83,55
105,298,752,487,148,111,93,57
99,305,757,532,159,116,94,59
97,352,720,522,158,99,85,54
79,351,679,440,133,83,88,49
84,351,678,410,131,91,99,51
73,351,693,400,123,85,94,48
78,329,698,342,116,89,100,47
69,255,673,317,113,98,101,45
74,237,681,338,120,98,94,47
65,231,689,308,104,91,86,41
83,241,686,300,100,93,90,39
80,237,646,288,93,89,88,39
88,298,647,322,90,78,82,43
87,299,624,384,102,84,87,42
91,301,569,391,106,81,83,47
86,309,634,426,113,79,77,52
80,295,646,427,114,70,69,49
74,244,643,408,112,74,73,46
82,252,613,376,111,86,84,48
79,238,586,382,107,81,83,46
72,243,478,340,106,87,84,42
92,268,560,437,141,104,84,51
100,275,648,460,141,108,108,61
91,268,638,429,133,107,117,62
92,258,648,420,136,111,117,63
92,216,630,418,134,108,117,63
79,254,646,378,105,100,127,60
67,232,546,312,101,95,122,54
76,270,586,299,95,84,106,52
75,280,636,317,97,82,106,51
77,288,641,309,91,80,106,50
75,231,533,233,82,75,98,50
82,230,587,308,108,88,93,55
84,183,522,302,109,85,88,56
94,180,500,350,120,91,92,58
89,175,526,368,126,97,91,57
89,217,583,384,123,93,90,57
81,238,534,338,98,75,76,50
