Channel_1,Channel_2,Channel_3,Channel_4,Channel_5,Channel_6,Channel_7,Channel_8
366,770,1230,694,354,296,197,184
391,839,1227,720,376,312,219,208
356,837,1181,635,330,296,187,176
357,867,1102,589,306,272,182,166
380,916,1091,612,287,272,172,166
411,918,1191,680,315,283,190,180
391,891,1191,715,310,294,176,164
403,1002,1111,730,340,299,198,183
412,972,1096,759,354,364,226,210
390,947,1075,726,348,350,219,202
353,951,1012,659,313,326,200,183
435,1052,1049,617,344,340,208,198
432,951,1176,680,320,334,189,187
447,996,1186,692,347,261,190,193
472,1015,1179,723,415,268,210,212
506,980,1180,727,459,324,226,228
455,937,1152,725,439,300,225,222
510,968,1118,744,483,318,260,254
494,930,1096,719,492,363,261,247
454,891,1058,712,467,368,254,234
403,939,1150,734,423,335,238,220
406,929,1260,755,425,369,244,217
335,940,1285,685,377,350,208,174
363,919,1321,715,357,312,191,158
382,953,1356,736,348,297,180,156
415,909,1248,705,345,290,198,169
383,804,1095,628,308,217,163,149
422,734,1048,614,338,249,176,175
401,759,1098,632,329,247,165,185
405,747,1056,590,324,241,168,196
414,743,1021,594,363,236,154,194
426,885,1119,647,392,251,169,201
417,919,1192,731,443,251,198,207
399,928,1051,632,422,240,193,182
452,963,1153,735,499,301,232,218
429,925,1270,731,474,297,232,210
456,793,1232,744,501,296,247,228
433,835,1159,640,441,281,220,207
450,806,1211,637,444,278,221,223
438,848,1136,493,335,228,177,183
451,881,1032,516,344,224,179,187
439,960,1091,507,306,234,161,177
456,994,1075,599,357,282,200,197
511,989,1120,655,408,329,241,226
484,887,1108,691,437,318,250,228
484,874,1058,743,477,337,271,244
459,891,1014,714,461,334,272,232
460,804,994,634,414,305,245,216
436,861,1041,689,399,292,227,190
433,877,1093,705,395,301,222,190
432,914,1099,639,362,307,216,181
452,819,1101,707,385,319,217,193
469,841,1202,741,390,298,217,198
449,777,1215,706,371,256,191,180
477,876,1217,705,377,260,207,197
525,884,1301,742,417,264,205,224
526,872,1332,720,429,268,207,227
487,785,1258,700,423,271,201,221
531,857,1179,703,445,294,231,249
493,817,1207,664,412,275,210,229
502,941,1236,718,421,269,222,241
526,981,1155,737,427,285,236,254
533,998,1129,733,426,291,237,255
551,1011,1166,754,490,376,283,295
556,1026,1201,775,505,392,296,299
580,934,1083,757,555,427,328,321
554,948,1036,683,533,406,320,306
650,1035,1087,784,648,476,371,371
578,977,1014,728,587,401,325,323
608,880,829,738,600,406,325,326
598,879,902,741,563,382,291,295
577,824,950,728,544,376,274,285
472,815,908,632,416,288,211,202
470,785,876,611,396,295,212,206
470,817,920,617,385,276,201,222
378,824,1034,573,309,227,171,190
406,803,1033,580,312,218,179,197
428,837,996,621,350,216,190,212
419,818,1093,619,344,204,179,206
343,792,1043,537,298,191,167,173
324,736,949,501,287,188,160,160
383,774,985,581,364,232,182,191
339,648,1120,520,318,226,160,166
360,707,1163,522,312,218,156,166
420,766,1238,577,338,249,183,192
460,785,1206,588,367,267,203,212
455,827,1209,623,383,256,207,207
473,790,1115,656,398,279,206,204
470,858,1113,698,404,284,207,199
435,815,1141,706,402,266,199,184
403,788,1172,717,377,246,185,166
361,780,1157,663,316,248,166,142
374,805,1178,677,315,217,169,154
398,756,1160,722,377,255,183,181
430,815,1079,711,395,269,180,182
479,817,1070,704,407,282,185,198
485,856,1133,747,425,275,188,209
459,844,1130,720,407,275,190,201
453,770,1094,657,370,244,183,194
440,780,1236,694,340,254,187,196
404,779,1207,700,353,251,190,200
420,680,1116,652,353,239,190,199
428,692,1184,655,375,249,196,208
437,783,1228,672,361,248,193,204
415,718,1062,618,378,220,181,201
407,768,1082,601,358,220,170,183
342,780,1092,562,298,215,150,157
391,816,1049,655,371,219,178,188
348,769,1000,614,375,210,177,176
353,767,1074,621,374,223,174,172
378,722,1125,642,431,244,199,196
389,708,1128,654,448,244,205,200
336,679,1106,586,409,238,190,172
333,655,1079,585,396,236,189,173
325,677,1016,574,387,213,188,172
280,645,940,531,304,166,162,138
272,642,1087,529,279,158,158,134
305,694,1158,571,255,178,151,147
329,732,1176,674,283,197,164,167
329,703,1239,682,274,201,164,165
325,731,1293,671,268,204,156,163
345,727,1242,743,309,265,198,184
303,657,1191,680,273,232,177,159
328,743,1205,645,295,231,181,159
346,749,1259,724,315,253,196,179
331,742,1187,698,303,250,196,174
352,829,1193,665,304,215,171,166
354,848,1148,640,303,220,171,168
328,780,1190,647,290,229,167,166
333,781,1144,608,280,224,166,154
359,783,1245,744,356,261,196,179
319,672,1219,712,338,241,188,173
319,675,1210,776,368,250,195,178
288,598,1174,790,353,237,183,159
252,569,1210,734,344,229,177,158
258,543,1204,702,292,193,145,144
326,660,1236,732,355,229,170,171
429,724,1343,792,457,337,242,241
443,776,1353,762,475,345,245,250
466,835,1263,792,497,355,249,257
457,831,1210,734,521,372,259,265
412,748,1107,699,478,352,239,246
304,653,965,561,365,254,166,180
318,609,901,563,359,257,180,177
289,654,984,570,339,237,173,160
280,623,911,589,325,222,172,149
307,642,1004,609,342,237,193,167
296,638,1084,618,328,219,185,159
258,603,1068,554,292,204,172,153
237,471,1033,517,273,211,162,146
228,506,1110,499,233,192,143,131
211,533,1159,546,231,179,125,115
252,651,1118,591,281,207,154,136
258,664,1121,580,279,190,143,127
289,656,1062,622,313,205,158,142
312,647,966,622,344,211,171,161
305,618,777,563,337,206,165,157
310,541,845,612,364,222,176,166
307,579,843,633,373,222,176,166
289,586,861,607,360,197,172,159
261,698,869,560,315,183,154,135
243,675,870,525,291,183,152,128
212,664,824,453,241,149,134,110
230,698,788,450,231,153,133,107
240,732,860,474,225,160,126,105
228,618,895,481,229,157,125,105
262,673,1014,543,254,159,133,121
252,677,1005,527,241,144,117,110
267,640,1114,592,291,185,132,130
262,612,1107,563,291,207,139,136
281,676,1095,573,303,220,148,147
276,678,1053,551,319,234,153,147
286,742,1155,567,314,233,152,149
278,753,1133,475,274,203,140,144
315,816,1181,482,267,182,128,142
312,793,1196,480,254,176,121,136
291,794,1217,475,218,160,106,125
278,749,1130,430,229,160,94,122
277,756,1075,444,238,160,100,127
243,707,1057,406,224,151,98,120
244,693,1139,396,234,153,107,123
249,725,1199,388,224,136,104,123
250,700,1268,459,223,146,107,125
251,692,1285,455,223,154,113,128
333,711,1248,585,347,213,168,182
344,778,1251,653,359,224,176,189
344,765,1213,658,369,238,179,188
350,748,1153,636,369,235,184,190
342,728,1146,639,377,262,187,184
299,700,1191,593,293,223,153,143
308,612,1100,552,302,221,151,144
333,631,1060,618,327,261,173,163
361,638,1085,615,344,295,189,175
365,621,1096,646,361,293,194,185
364,678,1143,694,394,309,212,194
413,745,1169,784,469,336,256,233
419,680,1121,736,491,312,261,240
413,718,1125,770,489,285,251,240
405,780,1100,754,466,254,239,230
365,687,1026,665,422,232,215,211
281,620,974,514,305,171,147,153
261,606,1154,601,308,183,132,142
272,713,1135,606,351,233,161,158
280,695,1148,626,366,245,175,162
286,726,1151,614,370,245,178,167
289,731,1193,637,379,251,179,170
261,734,1089,547,318,231,164,151
211,604,1158,493,236,159,136,114
269,644,1165,472,222,154,136,131
279,628,1114,510,235,162,132,132
296,622,1071,524,269,181,157,153
319,703,1050,534,278,179,158,162
305,685,859,494,270,177,152,159
261,606,803,487,262,191,147,145
295,666,925,497,292,191,173,166
297,691,1023,519,295,176,169,165
274,593,1000,503,296,180,169,158
287,614,1080,523,314,191,170,159
285,651,1099,544,332,178,173,160
243,633,1009,508,297,163,145,137
328,675,995,603,410,271,210,185
337,688,1079,603,408,271,207,189
378,809,1053,630,419,288,220,203
384,775,1036,611,405,288,214,201
401,767,1053,630,420,299,220,210
380,785,1069,608,371,270,189,190
381,785,972,607,370,272,195,189
356,617,1026,605,362,279,201,183
345,606,1057,610,365,276,205,183
328,622,1094,596,363,277,204,176
257,506,1015,523,273,209,165,140
247,496,1002,524,267,199,157,134
213,489,972,476,246,157,123,118
207,573,919,449,233,150,111,111
195,524,862,421,199,125,99,101
197,540,847,332,178,114,85,91
197,526,891,299,168,115,87,95
201,574,893,305,152,116,88,88
202,497,950,360,166,136,103,99
202,480,910,367,173,150,111,99
190,444,970,423,184,157,124,102
187,452,1008,440,187,155,123,100
179,389,1007,434,183,144,118,99
196,415,1042,435,171,122,107,101
216,455,1097,523,206,117,111,115
214,452,1052,507,200,111,113,112
219,468,991,499,201,111,107,112
265,573,1015,540,235,125,117,130
244,539,969,486,224,132,116,119
232,514,977,489,209,128,114,109
298,628,982,593,297,172,145,155
302,631,978,624,312,188,160,163
298,568,948,634,319,202,174,168
333,640,974,673,342,207,181,181
387,722,1131,711,418,256,210,210
401,682,1178,711,435,277,226,227
400,720,1281,694,429,268,220,223
428,743,1255,731,463,282,226,240
410,724,1232,733,470,293,229,238
391,675,1101,694,443,256,210,230
331,727,1176,618,379,215,165,185
353,710,1191,661,397,227,176,197
365,708,1229,655,393,234,173,189
360,713,1301,637,372,216,161,181
354,772,1292,594,340,222,160,174
356,719,1204,587,337,222,162,173
342,758,1124,538,325,212,158,174
317,864,1219,537,331,202,166,174
378,904,1174,627,401,238,200,207
360,856,1171,640,398,245,202,202
468,863,1160,695,483,319,258,268
477,888,1220,738,522,349,278,279
496,784,1074,727,495,350,269,274
473,792,1118,693,456,347,257,261
535,847,1107,797,528,403,300,290
593,949,1146,868,609,420,322,301
592,893,1031,842,593,404,308,291
557,881,1038,821,584,404,303,283
551,820,920,780,581,403,302,280
555,794,966,783,578,378,290,282
418,615,965,734,469,320,240,236
451,673,993,798,508,359,245,272
463,711,1106,799,510,354,251,276
481,828,1176,834,558,373,267,294
419,800,1176,783,510,341,243,267
416,852,1131,730,465,336,224,244
380,871,1164,658,413,319,213,198
387,857,1140,674,440,318,219,207
349,706,1108,619,362,291,187,177
328,731,1088,533,322,277,159,161
309,658,1123,499,306,247,146,155
308,547,1138,536,310,234,157,162
301,540,1036,489,298,247,154,161
307,571,972,523,324,238,169,162
327,520,912,501,321,240,176,175
350,571,1026,618,359,264,191,192
368,627,1010,639,386,232,198,200
375,633,1011,693,389,213,195,195
371,613,1015,685,380,204,181,194
420,733,1055,756,459,232,231,228
429,731,961,728,475,218,236,231
408,678,920,684,430,220,224,215
378,670,955,645,407,216,219,204
446,740,1038,731,493,268,263,246
443,670,1062,780,497,288,249,242
456,716,1018,793,528,309,273,260
448,741,1041,787,527,324,273,256
467,733,1026,803,551,342,279,263
407,710,936,720,474,310,250,228
345,716,989,641,407,298,234,197
284,649,946,529,317,287,190,154
369,693,1030,643,440,329,262,231
361,746,1030,587,410,301,257,232
369,726,1057,609,407,296,251,227
364,642,950,548,388,271,235,217
367,650,982,585,388,270,241,217
276,592,850,437,241,182,144,128
314,630,886,515,299,241,156,147
310,652,908,489,302,239,155,151
377,774,871,536,343,273,195,192
395,810,951,547,356,263,199,201
418,826,933,563,371,290,221,216
415,796,1014,564,371,301,225,214
454,791,1018,622,400,318,234,225
404,687,1074,589,370,294,203,193
413,733,1096,632,403,303,200,205
406,767,1182,660,401,291,189,201
372,736,1119,629,363,266,179,183
313,722,1099,575,343,251,198,188
299,722,1104,566,338,251,201,190
278,654,1140,545,313,289,220,185
248,612,1108,484,290,296,213,173
248,585,1083,484,291,274,200,168
296,628,1150,514,328,284,173,158
299,639,1126,518,332,276,171,156
318,626,1060,469,311,240,162,155
345,646,1116,552,343,246,181,173
337,636,1145,566,339,253,184,175
353,640,1160,630,354,295,202,190
452,710,1174,747,437,319,237,227
427,715,1084,732,432,309,224,212
419,690,1005,730,441,316,227,208
471,797,1122,773,468,340,242,232
428,740,1099,721,426,304,234,210
329,658,1135,602,344,296,199,173
340,669,1188,663,370,305,202,180
336,666,1246,621,349,281,192,171
268,532,1077,516,310,286,174,135
277,518,1034,509,316,282,160,140
333,562,1099,630,399,286,182,174
305,514,1075,566,361,264,169,160
292,454,989,542,345,256,156,156
274,414,959,531,325,192,143,148
293,465,1016,578,340,222,164,155
224,411,895,441,228,206,139,107
248,447,931,495,248,208,145,113
245,456,892,511,252,205,157,144
246,467,1004,527,253,221,159,147
250,487,941,534,275,190,156,164
249,528,960,559,284,178,163,173
240,500,868,521,290,210,174,187
259,512,875,537,309,218,169,174
278,621,850,575,331,222,188,182
306,689,825,587,326,233,186,185
425,746,935,735,437,294,241,255
520,877,1103,830,539,340,289,301
552,920,1185,857,590,388,309,320
633,930,1222,978,716,440,348,372
607,901,1258,933,702,427,340,359
637,939,1258,955,762,440,350,373
610,921,1185,918,746,452,338,355
578,923,1169,889,698,424,325,335
554,974,1201,835,630,435,311,310
614,1046,1166,901,685,453,320,333
522,999,1137,780,548,433,291,266
499,963,1164,757,484,392,273,246
533,990,1229,912,528,395,275,267
518,1011,1219,998,541,406,301,272
447,938,1275,954,478,392,302,247
433,907,1234,971,485,384,299,247
485,979,1259,1069,567,414,311,282
479,977,1155,991,579,439,337,288
470,885,1112,907,576,398,304,279
459,844,1055,875,563,400,293,272
495,906,1092,865,589,393,284,281
415,787,1046,699,505,397,270,241
378,705,1033,623,453,360,231,209
367,770,1021,521,369,333,217,173
388,761,1013,589,394,332,229,193
371,715,1019,655,396,362,243,198
375,676,936,641,369,291,211,184
441,789,1017,763,487,305,245,230
398,667,1030,741,479,300,241,224
476,734,1048,785,551,340,268,259
469,708,1011,725,542,317,260,249
468,743,1002,731,559,332,270,255
434,701,959,633,465,353,260,226
453,722,955,695,474,352,254,230
375,650,992,650,396,339,228,189
341,603,867,581,342,344,229,170
347,601,937,658,365,337,232,181
332,493,901,633,364,300,206,173
292,450,882,532,332,291,192,160
264,441,806,457,279,250,174,141
268,465,913,482,279,200,140,144
245,484,907,383,244,182,122,127
241,607,902,453,268,169,131,131
228,621,899,448,256,154,128,122
223,626,925,453,257,138,126,121
243,696,1017,478,276,128,131,129
398,734,1085,678,427,261,229,226
405,644,1111,679,442,293,236,228
462,727,1171,793,507,340,270,254
520,784,1288,864,564,377,297,287
552,800,1202,866,585,406,311,297
504,811,1121,779,539,386,281,263
508,854,1117,768,528,377,281,269
480,811,1081,714,480,356,257,254
430,845,1014,655,419,334,229,217
456,833,1019,714,425,320,238,230
435,805,1074,726,398,335,241,215
435,918,1104,757,393,326,228,209
418,890,1151,698,379,313,220,205
432,860,1151,711,381,308,213,206
350,857,1259,654,327,295,183,169
309,806,1185,549,241,204,111,131
328,735,1213,487,265,218,159,162
338,769,1174,538,280,275,170,167
389,764,1176,621,391,298,210,209
387,684,1073,622,399,293,207,213
388,728,1092,661,417,308,211,218
373,693,1070,688,421,309,211,208
360,660,972,650,408,261,209,199
371,724,1003,646,422,260,217,211
377,719,960,614,419,259,218,211
362,673,1046,573,404,242,213,205
333,598,1071,504,359,218,180,182
337,633,1121,511,362,221,174,184
242,484,1032,415,224,177,122,116
303,575,1081,533,281,199,153,143
311,569,992,550,290,199,158,148
311,572,934,546,284,201,155,143
327,509,972,595,320,190,166,160
303,562,944,546,297,184,166,150
260,534,932,472,274,189,147,138
243,537,971,451,260,190,144,132
234,520,997,436,258,186,143,130
240,556,973,443,234,208,152,126
254,536,1063,466,263,216,153,132
212,469,989,425,212,223,143,105
223,457,1003,450,227,222,148,112
275,495,1022,542,268,232,169,132
243,499,995,458,238,207,145,115
249,521,990,426,223,212,140,117
250,513,984,415,229,176,136,118
367,689,953,525,371,277,209,194
335,705,849,450,359,278,206,188
355,727,823,499,394,303,218,200
366,708,787,563,419,309,236,211
378,713,788,569,431,310,237,216
269,576,786,484,330,252,177,154
268,515,779,481,320,245,169,154
294,543,823,595,369,226,181,170
276,506,698,550,343,210,159,154
266,523,718,555,330,217,161,149
315,638,884,648,363,215,179,169
315,690,1006,687,370,211,174,163
262,595,977,553,279,189,148,130
251,616,1030,534,265,197,145,126
287,671,1127,596,314,193,154,147
222,598,987,457,251,169,138,115
218,537,903,392,226,161,132,111
214,536,865,382,221,159,125,107
229,584,919,471,246,173,138,115
240,536,935,457,265,211,153,127
251,468,931,492,276,212,144,131
244,462,883,495,284,230,146,133
260,519,1032,537,316,263,162,146
242,448,1006,467,295,241,148,138
197,426,923,427,240,207,124,111
182,424,915,391,225,197,120,107
187,426,956,414,231,198,128,110
173,404,833,381,193,146,105,91
200,464,824,419,211,172,116,104
198,551,870,468,242,170,111,111
237,595,903,494,263,190,132,133
271,640,973,520,298,218,160,154
303,724,1025,587,342,242,179,181
291,678,1031,559,331,227,173,175
314,655,1080,555,342,242,189,178
312,626,1139,560,332,230,182,173
313,663,1144,611,351,213,162,169
306,584,1185,615,327,197,150,153
301,597,1231,624,331,193,148,154
305,675,1164,605,310,200,147,161
301,789,1171,626,315,211,145,160
297,800,1205,597,276,213,152,158
273,833,1195,562,258,203,143,148
