Channel_1,Channel_2,Channel_3,Channel_4,Channel_5,Channel_6,Channel_7,Channel_8
89,95,156,43,25,30,70,104
107,97,150,44,27,34,73,107
110,95,158,43,26,32,62,92
111,64,154,41,26,31,58,93
115,71,159,39,25,31,60,67
89,140,151,38,29,31,57,70
67,147,161,44,31,29,56,71
65,149,169,42,31,29,54,70
71,159,167,44,33,33,63,78
65,164,162,46,33,32,56,86
87,134,160,47,33,36,64,81
92,126,146,42,31,41,79,97
111,126,114,44,33,41,81,98
113,132,119,45,33,39,76,90
119,132,128,43,36,39,79,88
101,110,121,42,34,38,77,82
97,115,134,44,33,30,65,65
75,116,168,46,37,38,66,67
98,109,169,45,35,39,69,76
94,108,161,47,33,41,67,81
98,139,177,47,34,41,69,96
99,143,168,46,35,43,68,93
99,152,170,47,29,39,69,96
90,149,166,47,33,43,67,98
95,145,165,45,32,40,65,94
95,145,203,55,33,40,77,85
100,154,209,56,36,38,78,98
100,153,240,65,40,37,73,106
94,168,244,65,38,37,72,103
86,174,265,72,45,41,75,107
88,161,239,71,48,43,72,106
93,158,261,74,47,49,82,112
105,150,210,68,43,49,85,99
128,140,207,68,42,47,86,98
129,141,186,59,35,45,86,100
126,137,180,56,34,52,101,148
126,166,210,70,41,49,100,140
120,183,255,73,42,49,101,142
85,189,277,78,45,56,110,147
90,202,288,90,50,58,106,142
125,212,291,88,47,49,78,94
144,194,266,80,46,53,92,100
147,204,237,78,48,55,93,101
151,208,295,77,48,53,128,96
147,198,299,70,42,58,152,116
122,203,312,75,42,58,158,131
94,227,327,87,46,66,170,150
95,222,328,85,45,64,171,158
187,235,295,93,45,59,140,163
228,275,316,96,50,59,121,157
228,273,308,93,52,61,115,140
237,257,289,79,46,47,80,116
234,252,288,82,49,52,80,121
173,248,282,81,51,54,84,123
116,207,292,82,49,47,76,118
112,204,300,84,47,45,77,124
88,205,299,83,46,44,75,117
92,196,305,82,46,47,86,152
79,189,312,81,45,48,88,145
85,186,269,73,42,47,84,140
83,181,248,68,41,49,90,135
92,170,245,76,45,57,123,151
110,184,248,77,44,52,122,147
113,184,216,71,40,50,121,146
107,222,223,71,39,50,121,146
111,233,251,81,44,54,120,150
108,230,317,91,42,46,87,137
94,243,327,91,42,45,77,91
88,232,334,94,45,46,72,85
87,187,349,94,47,45,74,90
78,162,332,93,47,44,71,83
75,170,283,74,43,42,80,107
65,150,294,80,42,41,76,105
99,169,272,74,39,38,76,110
106,185,269,78,39,40,72,105
147,191,273,76,40,42,104,138
152,186,250,77,42,45,101,122
154,174,225,64,40,43,99,118
139,149,221,61,41,44,98,126
134,128,244,65,45,44,101,132
99,144,255,65,43,43,76,116
86,162,327,78,49,48,73,115
80,154,309,79,50,47,71,121
77,151,324,86,51,49,76,120
84,158,295,81,47,49,83,127
77,141,283,76,46,46,81,117
84,121,256,82,43,38,74,112
80,127,288,94,47,40,72,100
79,138,283,90,46,39,70,90
72,177,267,87,46,41,73,120
69,185,268,88,46,40,71,127
61,186,244,68,41,38,72,128
99,184,207,57,39,39,73,130
103,190,221,58,40,41,89,143
109,168,257,61,41,40,97,109
109,169,260,61,41,37,90,96
119,161,258,75,46,43,93,94
92,166,267,72,43,40,93,91
85,205,259,72,42,39,81,104
76,188,238,73,42,46,94,132
82,183,230,73,43,48,98,131
69,188,226,68,40,46,96,136
73,189,296,73,42,47,95,140
74,136,300,68,41,47,101,124
76,137,316,67,40,40,69,103
70,124,332,66,36,38,64,102
73,117,310,56,32,36,64,97
63,104,230,46,28,36,66,90
59,96,266,64,32,38,58,82
70,104,249,64,35,46,91,70
68,129,231,64,38,48,98,74
67,136,248,66,39,49,105,82
69,138,249,69,41,49,106,98
73,137,210,62,40,48,104,98
66,158,222,69,43,41,73,93
65,144,220,73,42,43,65,89
65,143,226,71,43,44,66,111
67,153,236,73,43,43,67,107
71,162,257,72,43,43,73,111
64,130,240,67,40,42,72,109
66,130,237,61,40,40,75,112
62,129,231,66,40,37,67,98
61,119,247,64,39,41,89,119
56,110,208,57,39,46,89,123
56,138,221,55,38,47,92,126
54,140,225,58,39,46,92,132
50,134,207,49,38,46,91,121
101,132,186,49,39,50,85,113
121,153,180,51,35,43,85,105
125,144,213,62,39,40,81,100
128,137,209,64,37,39,77,91
132,132,211,66,37,39,75,93
98,129,206,63,33,29,54,69
84,127,216,61,36,33,54,76
77,109,177,49,30,32,57,79
72,129,179,48,30,33,61,83
65,132,192,49,32,32,60,79
63,136,191,47,32,30,58,80
73,129,193,50,29,31,75,114
73,141,178,50,32,34,77,116
76,130,187,47,35,37,74,114
79,129,199,46,35,40,77,116
79,156,199,46,36,40,76,111
68,161,205,46,36,42,67,102
75,156,223,46,34,41,72,105
72,165,211,44,29,40,76,104
69,166,189,43,29,39,77,103
70,144,201,47,28,40,78,106
63,126,194,46,29,33,75,97
55,147,185,47,31,32,67,90
64,134,200,47,33,33,60,88
74,145,193,50,35,39,64,92
74,143,173,52,37,41,66,92
65,138,176,58,40,43,68,89
69,108,172,57,41,48,91,128
65,135,162,58,41,45,92,130
54,144,171,57,39,38,87,126
58,149,203,57,38,37,86,128
59,149,194,50,33,40,87,150
65,155,223,57,34,39,70,139
61,146,220,59,33,39,74,145
67,123,227,61,37,42,76,146
63,119,214,60,39,43,75,142
66,129,207,60,40,37,62,109
56,123,181,55,40,43,85,100
51,99,164,50,40,44,83,92
44,98,166,49,38,43,81,92
53,111,174,50,36,42,81,89
51,99,190,55,38,48,93,94
54,95,199,59,38,42,70,82
54,94,215,60,38,43,73,77
54,93,202,58,38,42,77,76
46,76,196,57,37,40,80,79
54,77,182,52,31,34,68,62
54,77,166,50,29,32,66,59
54,78,198,54,31,37,74,79
63,79,222,63,31,37,72,84
65,137,212,60,30,40,69,83
61,134,216,60,31,42,72,84
62,143,250,63,35,46,81,84
63,145,219,64,34,41,74,79
56,177,191,55,34,47,93,95
64,141,206,63,39,46,100,98
59,146,202,62,39,43,96,97
57,153,146,57,37,39,84,90
55,153,137,50,35,39,80,87
62,128,159,54,36,30,68,91
51,130,139,45,33,32,69,88
57,135,167,54,33,32,68,88
55,117,172,53,32,30,70,88
63,113,191,63,39,38,83,88
57,100,176,60,39,39,80,72
58,93,185,61,39,38,81,73
55,87,166,53,38,39,80,73
56,96,164,57,41,41,80,78
50,99,142,48,38,39,89,76
50,102,158,50,37,40,84,74
58,104,182,56,37,41,76,91
57,110,175,56,36,40,79,90
55,103,188,53,34,37,80,91
55,105,195,55,32,39,59,116
68,113,185,55,36,38,61,110
61,114,166,49,37,40,61,103
58,116,175,52,37,41,60,105
60,118,165,54,36,43,61,102
58,113,167,54,37,38,59,68
56,102,195,57,37,42,65,85
55,96,198,60,34,39,66,76
57,96,207,59,37,38,63,72
55,103,203,57,37,36,60,72
62,107,209,60,35,36,57,75
62,111,183,50,29,30,57,70
63,114,203,50,33,30,77,100
62,111,193,48,30,33,83,102
72,108,195,48,32,37,87,104
66,111,225,53,31,36,85,101
56,117,247,59,33,37,85,100
55,123,228,58,29,36,67,71
65,126,225,57,31,37,61,78
54,120,221,56,29,35,62,80
53,123,176,46,30,33,65,90
51,111,153,43,33,42,69,83
50,97,144,42,35,44,67,81
50,107,150,45,33,40,67,71
57,116,172,48,34,40,63,68
59,112,185,55,35,45,89,86
59,114,176,53,31,38,84,82
60,117,174,51,30,36,82,82
51,91,164,49,31,39,82,87
50,92,156,45,33,42,82,91
52,92,137,39,31,35,59,79
56,100,138,38,34,40,62,87
53,97,141,41,36,41,62,88
59,107,149,41,37,40,60,84
57,101,133,44,36,40,59,83
58,93,156,46,36,42,63,82
57,100,179,52,36,35,55,76
57,100,177,48,33,33,56,85
57,89,178,59,35,35,66,91
63,104,221,62,33,33,66,93
59,114,211,62,35,35,65,97
57,100,194,60,36,39,76,117
65,127,243,71,41,43,77,114
58,145,252,68,40,41,72,113
53,134,216,63,40,44,84,119
55,128,228,68,41,43,87,133
54,128,223,64,38,42,82,119
49,102,164,52,34,40,82,117
53,89,160,55,35,41,82,122
61,137,163,56,34,37,73,119
68,137,136,54,36,37,68,92
72,146,144,55,37,38,65,93
72,159,143,56,42,47,81,97
77,164,116,48,39,47,80,102
75,144,140,52,44,50,87,101
67,145,138,44,40,50,87,105
65,140,164,46,38,49,85,100
73,136,184,44,32,40,76,100
66,138,185,47,35,43,82,87
58,126,166,41,29,37,74,82
63,141,185,46,29,38,84,107
62,151,212,53,32,37,82,108
56,143,210,57,33,39,79,119
56,129,231,64,32,37,78,122
57,127,245,65,33,38,76,127
83,137,234,64,34,38,54,102
85,128,194,58,32,39,63,100
84,129,204,55,32,42,73,91
84,136,189,49,30,39,70,81
98,133,173,48,30,39,69,68
74,111,176,46,30,36,71,64
75,101,167,44,30,35,64,64
73,105,152,44,30,28,54,55
78,91,166,49,31,34,55,81
68,137,172,51,34,37,61,89
68,140,189,50,33,39,66,94
64,144,193,52,32,38,67,99
79,156,198,53,31,40,85,121
75,177,183,46,32,38,83,107
69,187,179,45,30,36,79,105
68,185,165,43,30,39,84,115
75,211,173,47,35,49,105,129
64,207,164,47,37,46,91,111
63,192,178,47,34,46,93,116
61,152,184,48,35,46,94,113
71,171,171,53,38,47,95,109
70,160,158,48,34,43,91,102
64,159,147,47,34,45,93,120
73,173,144,45,35,48,110,129
77,178,162,50,36,50,112,133
69,159,182,46,35,48,110,136
63,150,195,51,35,44,97,127
83,179,211,52,38,44,93,109
81,170,220,55,37,43,70,96
78,166,211,55,37,43,77,118
79,164,208,62,39,45,83,118
104,219,218,61,39,44,79,120
90,201,239,71,42,44,80,123
85,203,231,75,43,40,76,121
110,201,232,72,40,37,67,110
115,199,223,67,42,42,85,136
96,173,245,75,46,48,111,142
99,163,218,67,43,47,112,139
101,159,210,66,45,49,118,140
72,158,197,64,45,53,126,145
73,169,238,64,41,45,110,115
69,124,200,53,38,43,92,115
66,136,206,57,39,42,96,138
71,144,209,55,38,41,95,142
70,142,215,53,36,35,81,127
58,130,188,54,38,37,77,122
59,124,189,55,36,37,78,120
57,110,180,48,33,37,69,90
58,128,199,59,36,37,65,90
59,133,212,61,37,39,71,91
71,161,223,68,37,44,87,99
72,161,255,66,37,40,81,87
75,166,256,65,35,41,82,91
67,150,248,53,32,42,80,80
68,148,248,55,32,41,78,92
65,116,227,44,34,41,76,116
60,111,191,45,34,41,77,118
56,109,200,49,37,42,77,115
64,123,183,54,39,42,76,115
64,132,176,54,39,43,73,103
56,150,205,64,37,37,71,76
56,153,228,66,40,41,79,69
57,181,219,69,41,41,76,70
41,171,250,73,42,43,82,76
44,168,245,70,42,45,85,86
51,164,218,64,44,49,80,87
52,176,196,66,45,50,71,95
80,145,202,60,43,50,73,93
82,145,185,55,43,49,77,101
80,170,192,64,44,49,83,95
77,161,196,63,42,45,73,93
78,149,198,61,42,49,88,104
57,146,190,64,42,46,87,104
55,134,185,58,40,44,80,97
52,94,191,56,40,45,76,97
49,100,184,54,38,47,82,91
67,114,173,52,35,41,74,88
61,119,172,57,39,46,84,87
69,121,160,59,39,45,83,83
71,124,140,53,37,42,82,79
74,156,210,66,40,45,88,95
59,150,209,67,39,42,80,88
60,150,204,60,37,38,71,88
63,153,219,62,37,40,79,90
66,157,214,63,39,38,77,92
66,115,163,53,38,32,67,90
63,101,174,50,36,31,63,87
64,109,183,50,34,30,67,90
56,106,169,45,32,29,62,95
55,106,198,51,34,31,61,105
58,111,201,55,36,33,68,96
58,116,271,66,40,35,65,93
61,118,300,75,46,39,62,94
68,118,292,75,47,43,76,106
72,111,284,72,45,50,92,100
69,107,286,69,44,50,90,100
69,105,209,59,43,52,101,107
80,119,287,71,47,72,157,150
72,131,295,74,51,74,164,141
76,149,316,83,55,72,158,139
76,149,312,84,54,72,156,134
77,154,328,88,56,74,156,127
63,128,235,75,48,54,110,94
67,122,237,74,45,50,100,92
74,126,211,64,39,47,96,92
73,148,202,62,40,45,94,94
75,145,180,55,36,45,86,100
75,150,165,49,34,42,79,82
78,143,159,53,33,44,75,90
64,122,148,50,34,45,75,94
69,93,147,52,34,48,86,102
69,109,160,49,34,45,86,102
66,139,165,47,35,45,83,94
60,146,167,47,35,38,74,88
67,157,176,47,34,38,81,89
59,158,175,43,33,32,69,81
57,148,160,46,32,29,65,77
58,119,157,47,31,32,69,84
73,139,195,46,29,36,89,104
65,131,180,45,29,36,91,102
64,130,181,46,32,38,93,96
66,154,200,54,33,41,95,105
65,157,245,60,34,36,91,105
44,131,211,55,36,37,75,77
58,134,295,68,37,35,61,74
67,153,307,70,36,36,63,79
69,141,297,70,37,35,58,71
68,137,264,65,36,38,55,75
74,155,270,69,37,44,68,88
64,152,182,56,34,45,72,93
58,136,184,58,35,44,71,93
51,121,206,55,33,46,95,112
63,139,214,56,33,49,107,112
58,117,217,54,33,45,101,112
56,109,207,57,33,45,98,106
55,101,191,59,37,45,98,107
56,98,178,56,36,42,78,87
49,83,192,59,39,53,97,101
48,86,185,57,38,50,100,101
50,98,228,68,44,52,107,106
58,107,220,61,39,49,104,103
66,117,211,60,41,51,104,98
61,104,186,58,39,38,85,104
61,111,179,58,38,43,84,103
58,102,126,40,31,40,79,97
57,99,136,40,32,39,81,98
53,97,135,39,30,37,78,97
62,102,138,48,34,35,62,68
62,90,151,49,36,32,66,71
67,97,169,51,38,43,89,96
65,106,159,52,41,44,99,115
62,102,155,52,41,42,99,117
59,101,161,48,37,39,98,118
57,101,149,45,34,39,91,117
66,115,134,45,31,31,75,100
64,111,147,49,30,33,64,86
64,110,151,52,31,36,68,84
65,121,197,58,33,41,74,89
69,122,195,58,34,38,69,85
60,103,200,59,33,36,60,85
60,116,232,65,36,36,57,83
61,113,232,64,38,40,64,87
55,109,203,58,35,38,59,82
52,115,221,59,36,44,63,89
45,112,211,58,37,45,66,86
42,89,183,47,31,47,70,78
39,90,224,52,28,41,62,74
50,100,244,50,28,39,62,68
51,93,232,48,27,39,74,68
53,93,239,51,29,37,72,66
55,93,226,49,28,33,67,72
56,92,201,46,30,38,73,73
55,110,169,44,29,39,72,85
52,116,175,50,31,35,60,92
52,119,169,48,30,37,64,94
48,120,171,49,30,36,62,91
46,126,209,52,31,32,54,89
34,90,205,51,31,31,50,75
36,89,213,50,34,29,46,53
36,86,215,51,36,30,54,59
37,85,214,55,39,33,54,60
34,74,161,50,39,36,57,60
37,75,150,48,42,39,60,64
34,62,146,56,39,41,58,72
36,62,146,53,37,43,67,73
35,59,146,53,36,46,67,81
39,61,156,55,34,45,68,82
36,75,156,55,33,47,72,93
39,88,140,48,36,50,77,86
43,102,183,58,38,47,64,87
42,105,184,56,39,44,69,85
50,123,186,59,40,43,74,93
56,116,195,61,40,38,75,93
59,109,192,58,36,33,70,90
56,103,151,53,35,32,71,82
61,103,157,50,32,32,76,95
55,84,162,49,32,35,75,97
58,108,164,48,33,37,74,90
68,112,174,48,34,37,72,89
69,106,174,48,33,38,68,90
75,107,176,54,37,44,74,103
75,105,173,54,37,42,69,95
69,86,161,51,35,42,64,91
57,80,161,51,33,42,65,93
58,92,178,53,36,41,71,101
48,97,179,51,35,34,66,106
48,97,163,50,34,37,70,113
62,118,203,58,36,36,71,115
79,126,191,55,37,35,69,115
78,123,192,55,37,35,64,108
84,124,198,56,36,41,75,83
83,123,206,54,38,41,77,73
74,102,175,47,35,40,76,79
64,96,195,52,38,46,80,80
76,96,202,51,36,46,78,75
70,90,203,50,37,45,68,69
70,89,196,51,37,45,74,86
69,78,200,54,39,46,75,79
61,94,198,49,37,41,72,76
44,96,187,50,37,41,76,86
46,92,180,51,33,35,82,123
45,94,185,50,31,33,75,116
43,109,199,58,33,33,73,117
46,95,195,56,32,34,73,118
46,88,181,55,31,36,77,112
44,90,175,50,31,41,75,93
58,101,206,59,33,43,76,86
58,87,200,50,30,43,79,88
54,90,195,52,31,42,78,87
55,91,194,51,31,41,81,96
58,106,238,61,33,37,77,92
55,96,219,56,32,36,79,101
62,114,213,56,32,41,80,101
