Channel_1,Channel_2,Channel_3,Channel_4,Channel_5,Channel_6,Channel_7,Channel_8
172,561,1000,330,187,151,121,123
165,464,1025,331,193,165,124,126
157,442,1079,373,200,162,123,126
140,386,951,307,166,156,108,103
143,391,994,305,153,154,100,94
150,442,900,307,174,138,98,99
140,431,866,293,175,130,93,99
137,410,747,208,153,131,93,95
153,511,796,210,177,139,101,103
153,501,696,193,191,134,98,123
158,491,687,183,176,149,102,135
180,542,698,204,187,161,111,141
205,539,734,195,214,163,115,144
198,427,791,210,202,160,112,141
196,422,850,199,194,171,118,122
190,481,952,260,193,160,117,105
170,441,1016,289,178,147,110,95
174,477,1030,308,182,152,116,99
184,495,1027,297,186,152,115,99
185,528,972,304,188,141,109,101
183,452,918,264,189,147,105,96
180,438,845,228,183,137,102,88
154,447,864,213,165,129,90,84
164,448,819,256,212,148,112,106
161,439,841,254,206,149,114,107
154,430,843,261,204,144,114,106
161,442,832,246,202,145,115,109
151,450,859,273,186,143,114,101
119,423,823,234,110,119,92,75
111,424,830,222,108,116,86,71
134,421,825,195,130,135,99,84
145,403,863,194,138,141,94,84
151,416,724,144,144,141,95,86
167,414,773,161,167,146,101,94
166,359,741,158,163,139,107,89
166,364,667,165,153,123,94,85
156,398,593,169,149,123,99,86
148,306,646,162,140,110,91,83
158,411,611,164,137,112,95,91
168,444,639,209,183,129,104,103
184,448,706,213,195,131,114,109
185,415,803,217,200,142,116,151
184,444,851,220,204,141,121,154
163,348,876,204,195,142,121,153
161,386,956,208,170,142,111,152
133,366,952,213,152,153,106,147
136,376,854,216,152,142,101,104
142,363,794,217,149,146,98,102
154,404,868,266,156,146,83,94
148,345,804,233,163,146,93,90
155,437,809,233,190,156,98,109
147,430,881,228,183,148,96,106
150,463,910,246,195,156,101,113
169,501,917,223,205,155,116,122
183,542,887,224,195,154,114,125
213,534,861,230,198,140,110,134
214,544,785,227,196,143,110,145
225,531,745,224,190,147,112,149
213,599,614,199,184,156,102,144
205,585,756,235,190,156,101,150
160,530,755,229,160,164,102,124
159,560,848,234,166,171,108,121
139,608,850,221,159,159,110,119
121,474,878,213,136,143,109,117
125,477,890,199,135,147,111,107
125,484,947,201,130,132,114,130
156,494,971,220,141,137,117,137
161,411,949,215,142,143,113,140
175,447,891,227,158,150,118,152
170,419,820,228,161,150,124,155
171,435,777,225,160,141,116,134
152,407,673,206,158,134,118,126
156,399,745,203,159,132,122,113
156,365,757,193,144,127,116,113
157,395,710,160,129,105,104,107
154,409,684,141,125,108,102,110
174,427,716,140,124,113,100,137
171,429,701,152,129,112,92,140
175,488,718,162,145,116,101,139
163,488,691,175,137,127,100,136
175,519,735,213,154,131,105,153
149,491,695,216,147,123,95,124
149,490,665,234,155,120,100,122
155,445,749,255,161,127,112,122
191,436,837,264,174,138,137,197
182,405,826,252,161,137,137,197
178,389,833,249,163,141,139,203
175,411,848,233,147,144,139,209
151,420,853,218,123,138,118,200
125,405,852,206,131,130,111,147
134,363,799,190,136,147,116,140
141,366,864,186,127,147,119,144
167,454,844,200,162,158,127,138
176,447,765,178,165,161,134,149
165,452,812,179,149,185,141,133
158,471,845,178,151,185,145,124
160,460,767,183,146,182,138,107
127,375,845,242,114,177,133,103
115,411,817,245,107,174,135,100
149,426,796,283,139,151,140,160
155,440,890,296,141,152,141,178
154,485,939,324,164,176,177,198
160,476,908,269,164,169,177,200
173,436,959,268,174,171,173,210
163,433,895,253,163,170,156,174
157,450,866,246,150,155,150,151
157,460,969,234,145,136,113,133
166,507,919,230,150,148,114,135
172,499,869,252,151,161,124,138
154,510,923,227,132,166,122,132
153,522,867,224,153,174,122,139
193,578,766,266,175,187,126,164
206,519,823,301,192,217,136,166
206,525,865,290,204,223,146,158
205,515,856,308,208,215,143,163
208,483,924,324,211,210,143,165
185,388,932,325,210,205,137,139
175,442,1077,316,203,172,130,137
182,446,1193,366,199,153,108,126
198,460,1206,426,231,159,114,144
227,478,1227,443,234,164,110,153
246,551,1183,431,260,178,133,166
259,578,1114,443,261,201,144,171
288,658,1018,447,293,262,178,202
332,722,1099,429,341,309,201,207
325,728,1103,401,344,311,206,200
333,764,1143,426,348,308,204,194
322,734,1080,444,347,294,194,189
291,686,1145,458,324,253,165,151
237,610,1059,418,275,234,148,128
219,590,1039,416,285,238,149,128
183,491,1141,383,268,239,145,117
184,522,1160,340,280,244,158,129
188,526,1105,298,280,232,164,136
213,540,1199,348,307,215,164,147
218,510,1166,370,297,207,172,152
223,542,1063,412,287,184,165,153
217,504,1039,408,264,168,150,138
219,531,1030,472,296,193,161,144
197,604,962,469,273,166,161,127
233,640,1056,534,339,220,178,151
240,633,1118,495,342,227,174,154
233,668,1185,522,352,248,179,156
233,625,1160,443,317,226,165,146
259,571,1107,436,344,251,176,165
239,601,997,336,293,211,147,143
269,639,956,405,354,262,182,167
276,620,914,407,350,251,187,173
288,629,1020,405,376,258,195,180
256,603,1003,369,337,228,172,162
251,588,1041,372,323,235,177,163
199,519,1000,318,242,176,145,129
217,507,989,273,262,191,150,128
187,503,889,276,238,189,140,118
185,480,877,263,215,195,141,109
189,438,854,302,240,192,162,107
202,428,832,299,247,210,177,127
172,392,833,293,217,197,171,121
229,484,990,301,281,219,187,149
253,529,1002,339,323,225,201,165
296,594,949,384,369,265,224,194
286,579,915,362,357,251,215,179
308,609,901,393,389,279,228,202
278,538,674,387,351,264,217,185
254,475,594,354,319,254,200,171
195,419,710,340,254,212,154,135
218,429,746,366,292,219,168,148
189,392,698,330,252,171,147,110
197,368,863,355,241,185,164,121
261,478,915,370,310,233,206,155
260,444,837,289,301,215,204,155
239,416,797,245,266,210,185,146
242,440,852,274,269,213,183,158
217,472,643,223,257,189,162,147
142,447,590,216,168,134,108,115
131,432,591,229,149,135,98,109
138,478,676,242,160,129,98,113
125,444,578,202,142,122,97,121
151,433,649,218,170,140,114,141
144,357,656,197,164,123,109,138
136,365,727,180,157,131,113,136
179,481,683,278,224,158,130,152
205,508,697,297,245,169,143,179
196,489,639,289,230,156,125,178
198,483,593,289,231,167,134,182
233,528,614,385,306,230,163,190
193,367,564,311,252,207,150,174
208,438,657,328,279,218,163,146
213,445,733,350,295,225,168,127
226,496,825,360,310,230,168,126
193,434,706,251,238,158,135,118
202,466,731,260,239,164,139,127
189,384,670,235,208,161,121,117
178,429,584,194,178,166,115,116
166,388,534,194,171,176,124,125
163,392,580,215,173,181,141,129
159,357,581,205,167,176,134,121
125,411,575,196,136,163,131,118
132,381,716,261,166,164,150,136
136,376,747,260,158,163,151,129
153,464,740,286,201,175,143,130
149,470,729,290,201,172,145,128
159,452,791,312,212,170,135,120
157,442,710,275,205,186,164,108
143,439,675,269,196,163,151,101
129,344,681,240,151,145,150,94
128,344,664,233,150,145,154,100
138,343,666,200,155,147,162,106
153,323,783,196,180,146,127,113
150,310,756,184,177,148,128,112
146,314,792,175,174,158,123,106
177,358,913,288,206,165,124,113
163,319,847,293,199,160,115,106
137,301,771,279,163,138,107,90
137,286,752,279,160,132,104,87
175,390,756,357,237,154,124,111
141,346,701,276,213,147,118,94
134,333,693,265,203,144,118,95
136,353,693,289,202,138,118,92
164,429,785,313,220,167,123,104
126,408,723,212,143,138,102,83
128,418,633,209,139,141,101,88
159,488,682,248,194,168,128,117
164,475,591,226,197,159,123,120
140,409,527,198,180,139,118,112
136,328,529,195,174,136,115,109
149,340,627,202,178,141,124,107
129,269,588,142,148,120,102,85
120,266,676,130,133,116,120,110
147,328,680,240,175,124,135,162
156,335,669,248,181,131,141,168
162,422,607,266,218,153,156,190
170,445,559,272,208,146,168,218
178,476,545,288,213,159,159,212
193,474,503,228,207,167,164,191
186,480,515,219,203,165,160,185
186,480,611,229,204,152,147,186
174,462,653,231,197,147,129,157
172,439,596,212,191,132,118,159
136,424,641,198,163,102,93,154
142,455,648,202,174,105,104,159
131,374,535,170,139,91,103,134
137,397,554,188,143,99,109,130
133,401,601,209,150,106,128,150
129,401,545,196,145,104,130,141
130,351,556,193,126,101,122,135
138,345,604,186,128,107,115,134
139,304,558,162,124,104,108,134
147,288,585,141,126,110,90,90
158,295,598,144,133,114,85,110
164,319,631,140,133,114,87,109
158,338,687,135,139,151,91,113
152,319,681,152,139,149,86,108
158,345,636,153,142,144,79,112
145,325,616,160,143,146,93,92
136,322,549,164,154,161,99,93
117,283,432,165,127,110,87,80
138,303,457,154,132,117,100,87
118,262,392,141,120,111,99,85
116,273,414,125,110,106,85,78
148,289,488,188,171,121,107,111
167,317,461,194,178,128,112,115
154,321,437,196,173,121,113,128
157,338,472,209,177,124,114,128
172,317,528,241,184,127,123,139
152,290,483,187,126,105,109,121
159,300,575,204,143,111,111,122
151,288,607,191,145,119,107,136
149,264,636,195,139,120,119,147
154,280,646,203,145,117,134,193
144,271,628,205,134,99,122,193
120,241,586,199,102,83,118,204
125,269,571,202,103,91,125,222
129,281,530,194,103,85,129,256
111,289,509,225,109,94,109,222
119,302,515,232,124,102,121,221
116,293,473,216,123,104,118,211
131,296,538,238,123,92,122,183
147,324,559,252,134,102,126,136
144,324,499,181,110,89,122,142
141,313,510,176,97,76,112,150
156,326,582,195,125,84,121,157
139,294,489,166,117,72,106,153
118,275,581,138,111,68,88,142
125,281,565,146,123,82,93,134
121,287,552,143,126,90,98,156
96,257,498,119,100,83,86,156
125,287,574,198,161,103,95,157
127,271,442,205,166,101,85,152
125,262,443,200,159,94,78,147
142,351,587,239,168,101,83,117
149,354,571,240,168,103,82,104
141,342,561,201,133,114,103,118
140,345,578,198,122,109,104,135
131,325,572,197,122,109,105,141
120,263,470,171,132,126,102,139
110,285,451,165,132,129,103,141
99,277,466,169,122,113,90,150
102,288,473,167,124,123,97,181
123,339,666,247,157,133,106,190
126,319,635,242,141,109,102,193
133,375,641,247,144,109,104,197
187,369,596,231,136,110,97,178
200,416,607,248,151,110,100,142
194,418,488,174,119,99,93,132
191,409,493,158,109,103,88,129
193,341,493,159,104,99,88,154
143,360,568,167,104,96,78,149
122,356,539,146,80,87,68,149
124,320,442,157,92,100,74,141
118,319,431,159,91,90,73,142
132,323,518,164,98,93,89,180
137,296,463,154,108,100,106,214
147,308,543,165,133,116,111,215
145,303,554,146,125,104,110,244
150,316,614,153,140,118,141,293
134,322,568,142,139,120,142,263
136,367,645,176,137,114,135,241
125,303,618,158,112,95,129,248
125,306,665,163,111,94,129,225
120,287,696,166,90,79,95,152
114,276,736,162,79,68,74,141
109,229,687,139,79,73,76,151
108,261,701,139,86,87,89,132
96,248,705,153,88,95,90,134
128,269,695,235,131,125,113,143
136,272,666,252,140,130,115,141
149,319,691,249,149,137,116,127
156,288,639,248,146,130,106,132
158,304,618,240,148,126,112,150
141,300,644,167,137,109,94,146
134,302,610,150,136,106,95,138
118,246,512,133,116,94,86,141
108,256,545,142,116,90,91,161
106,234,540,142,116,96,78,137
98,224,462,140,98,82,72,136
96,227,477,130,88,82,80,142
95,230,572,168,93,70,88,147
98,224,598,176,92,74,83,119
95,223,564,171,84,71,80,116
91,214,526,168,86,70,86,117
104,248,539,170,85,70,76,109
87,254,443,133,78,79,68,89
94,249,433,119,76,80,72,124
102,265,433,121,76,73,84,135
116,316,418,116,72,84,89,152
114,298,474,152,85,101,97,157
128,292,467,156,86,94,97,159
125,324,510,161,91,95,96,132
124,322,508,162,93,101,87,130
127,277,549,153,90,95,98,169
128,257,583,125,78,78,95,168
120,274,634,166,109,88,107,172
126,297,550,165,109,85,108,171
143,383,576,199,129,86,116,174
127,382,534,199,121,79,98,113
124,408,493,214,129,88,101,125
121,401,416,184,109,82,87,116
116,390,503,199,128,114,91,119
88,329,481,170,114,119,83,102
97,367,545,180,125,121,80,102
90,351,493,158,116,112,69,82
92,340,534,172,127,122,76,99
77,306,438,140,101,92,71,96
82,273,588,153,94,83,69,98
85,234,600,149,88,88,76,98
94,233,631,156,87,86,75,94
96,243,633,145,65,71,66,83
98,226,654,147,66,76,74,119
94,258,642,135,79,83,96,140
81,240,589,124,70,78,93,137
101,233,542,116,90,87,101,149
101,219,527,107,96,84,101,144
105,229,523,109,97,85,97,121
109,203,370,104,93,93,85,101
118,225,506,133,107,106,112,114
97,213,528,128,93,102,110,105
97,219,515,127,87,103,113,107
92,213,493,123,84,104,114,96
89,202,559,138,77,90,111,112
76,179,463,122,60,72,83,99
69,220,474,123,58,75,76,92
68,225,531,131,61,85,74,96
74,225,570,135,66,84,70,101
67,216,521,113,63,84,60,84
76,211,526,112,57,82,66,91
76,171,499,115,53,78,69,89
70,154,447,105,45,71,66,81
82,185,483,111,59,76,68,96
83,183,491,115,57,70,70,86
82,206,458,103,63,72,68,95
88,225,599,135,79,73,68,97
93,272,592,144,90,73,65,99
84,288,606,150,88,65,61,80
92,308,589,149,90,69,74,80
89,308,657,156,89,71,74,58
83,291,600,138,77,69,71,59
115,264,627,170,135,111,105,85
114,234,556,171,137,115,112,87
109,245,568,171,137,115,115,87
107,223,510,162,138,113,112,85
112,257,434,159,144,129,123,88
89,259,399,127,94,97,98,60
87,261,407,118,93,100,92,59
93,232,416,127,92,98,91,120
97,239,379,131,91,99,95,133
93,245,360,118,79,87,86,133
85,256,508,134,69,85,83,138
84,245,507,130,62,74,80,135
84,260,482,115,58,74,65,91
88,278,561,135,65,71,65,76
86,271,567,136,65,57,57,79
86,238,457,119,72,52,60,86
85,242,456,117,68,47,61,93
98,238,574,176,81,50,64,92
94,207,529,168,74,50,58,91
91,168,532,167,76,51,65,86
91,199,587,193,99,59,62,74
90,195,589,195,116,70,71,81
69,183,498,150,115,80,74,83
64,184,457,141,119,86,75,80
77,186,515,151,122,86,75,99
71,155,431,113,102,81,75,99
72,161,432,109,83,71,62,87
70,157,438,114,80,67,63,84
71,164,460,120,74,62,67,99
64,163,469,115,87,66,69,91
65,159,489,102,82,63,67,90
75,168,562,161,109,81,78,95
77,174,540,158,108,76,71,92
82,164,533,151,109,76,79,88
83,163,454,148,97,72,72,101
89,177,463,169,111,77,77,109
84,168,359,124,95,68,71,105
83,166,380,121,98,67,70,117
85,166,415,130,99,68,59,109
82,157,431,137,99,65,59,90
83,171,421,129,93,65,58,79
78,175,418,120,78,60,59,87
84,177,375,127,79,62,72,96
82,187,322,123,88,62,75,100
81,198,314,111,84,62,75,98
83,192,428,138,100,70,84,99
85,186,470,142,102,67,81,97
76,187,510,140,104,63,69,72
72,183,543,150,96,69,66,71
71,172,543,149,98,69,65,84
62,176,482,134,79,56,50,80
70,182,457,130,78,53,56,75
73,174,451,133,69,52,56,75
73,167,429,120,64,39,55,68
75,176,460,135,68,48,58,52
85,187,402,111,88,73,69,58
87,179,381,111,93,79,64,59
83,175,325,97,94,80,66,56
94,232,330,116,117,99,84,65
111,285,382,140,140,108,98,76
107,274,378,145,126,94,89,68
103,273,394,146,125,94,91,72
104,270,406,146,124,93,93,74
104,251,457,141,113,85,86,73
87,178,395,103,79,69,69,60
78,161,541,111,78,68,67,64
76,163,552,114,74,64,65,56
75,170,562,116,76,63,61,53
62,143,525,120,73,50,47,45
57,156,551,126,71,48,45,44
53,152,439,113,69,56,55,50
64,150,470,110,68,57,54,54
68,157,501,111,65,59,53,55
68,137,536,100,47,54,48,52
69,124,537,94,51,53,48,52
77,135,537,102,53,53,46,46
87,186,556,114,71,70,57,52
87,180,531,115,73,71,57,51
89,189,493,112,83,80,62,54
92,189,459,110,79,82,60,55
88,205,520,126,79,74,54,54
72,169,490,122,67,61,40,47
67,162,497,121,64,76,49,47
60,159,513,114,51,72,46,44
62,192,525,115,58,77,50,44
58,171,457,89,52,77,50,44
68,206,505,86,61,82,65,50
67,207,487,78,60,66,57,50
71,206,455,84,63,65,60,53
66,173,413,86,59,55,59,51
67,175,434,84,57,56,58,51
55,122,331,83,42,46,43,45
55,129,324,88,43,45,42,52
56,140,353,85,41,36,37,49
62,158,362,107,56,65,51,53
64,159,300,112,63,65,52,50
69,171,367,109,66,66,54,51
72,174,360,112,66,66,55,48
69,172,406,136,68,69,56,49
69,156,446,118,55,50,44,46
